# omega                  |E(w)|^2           arg(E(w))(unrolled)
0.00000000000000E+000 6.14896302034890E-015 3.14159
2.00281608767302E-001 5.23879121370531E-005 4.37719
4.00563217534605E-001 2.09223241810522E-004 4.04211
6.00844826301907E-001 4.69451242948655E-004 3.70723
8.01126435069209E-001 8.31107718309756E-004 3.3726
1.00140804383651E+000 1.29109128093067E-003 3.03824
1.20168965260381E+000 1.84498311717696E-003 2.7041
1.40197126137112E+000 2.48700180916403E-003 2.37009
1.60225287013842E+000 3.21014859732423E-003 2.03612
1.80253447890572E+000 4.00654650157219E-003 1.70204
2.00281608767302E+000 4.86791861456106E-003 1.36774
2.20309769644033E+000 5.78610266615881E-003 1.03314
2.40337930520763E+000 6.75347490071748E-003 0.698194
2.60366091397493E+000 7.76316506027899E-003 0.362899
2.80394252274223E+000 8.80898631323882E-003 0.0273224
3.00422413150953E+000 9.88507105632179E-003 -0.308428
3.20450574027684E+000 1.09852802801921E-002 -0.644214
3.40478734904414E+000 1.21025216402387E-002 -0.979884
3.60506895781144E+000 1.32281514887263E-002 -1.3153
3.80535056657874E+000 1.43516364093271E-002 -1.65037
4.00563217534605E+000 1.54606067318907E-002 -1.98504
4.20591378411335E+000 1.65413549744948E-002 -2.31933
4.40619539288065E+000 1.75797324076938E-002 -2.65329
4.60647700164795E+000 1.85622992244678E-002 -2.98705
4.80675861041525E+000 1.94775114360572E-002 -3.32074
5.00704021918256E+000 2.03166994728455E-002 -3.65451
5.20732182794986E+000 2.10746192803077E-002 -3.98851
5.40760343671716E+000 2.17494342485071E-002 -4.32281
5.60788504548446E+000 2.23421012948981E-002 -4.65746
5.80816665425177E+000 2.28552630941312E-002 -4.99243
6.00844826301907E+000 2.32918626002175E-002 -5.32765
6.20872987178637E+000 2.36537691627335E-002 -5.66299
6.40901148055367E+000 2.39407190647914E-002 -5.9983
6.60929308932097E+000 2.41498209866581E-002 -6.33344
6.80957469808828E+000 2.42757668797064E-002 -6.66829
7.00985630685558E+000 2.43117423496414E-002 -7.00281
7.21013791562288E+000 2.42508781989404E-002 -7.33701
7.41041952439018E+000 2.40879591863266E-002 -7.67098
7.61070113315749E+000 2.38210357004344E-002 -8.00485
7.81098274192479E+000 2.34525863507166E-002 -8.33881
8.01126435069209E+000 2.29899567648848E-002 -8.67306
8.21154595945939E+000 2.24449383599665E-002 -9.00777
8.41182756822669E+000 2.18325231510408E-002 -9.34304
8.61210917699400E+000 2.11690413721744E-002 -9.67891
8.81239078576130E+000 2.04700217997752E-002 -10.0153
9.01267239452860E+000 1.97481813020912E-002 -10.352
9.21295400329590E+000 1.90119348572051E-002 -10.6888
9.41323561206321E+000 1.82647216479973E-002 -11.0253
9.61351722083051E+000 1.75052853478313E-002 -11.3612
9.81379882959781E+000 1.67288590706283E-002 -11.6964
1.00140804383651E+001 1.59290260294484E-002 -12.0305
1.02143620471324E+001 1.50998926611811E-002 -12.3637
1.04146436558997E+001 1.42381495278998E-002 -12.696
1.06149252646670E+001 1.33446192841539E-002 -13.0276
1.08152068734343E+001 1.24249952181637E-002 -13.359
1.10154884822016E+001 1.14896365036707E-002 -13.6905
1.12157700909689E+001 1.05524735370100E-002 -14.0226
1.14160516997362E+001 9.62925001073662E-003 -14.3557
1.16163333085035E+001 8.73545252076864E-003 -14.6901
1.18166149172708E+001 7.88432911817090E-003 -15.0258
1.20168965260381E+001 7.08536665789795E-003 -15.3627
1.22171781348054E+001 6.34349173906962E-003 -15.7005
1.24174597435727E+001 5.65910529423003E-003 -16.0386
1.26177413523400E+001 5.02889005765877E-003 -16.3765
1.28180229611073E+001 4.44717921569854E-003 -16.7135
1.30183045698746E+001 3.90757417885692E-003 -17.0492
1.32185861786419E+001 3.40446854983678E-003 -17.3833
1.34188677874093E+001 2.93417748659772E-003 -17.7159
1.36191493961766E+001 2.49547455935258E-003 -18.0474
1.38194310049439E+001 2.08947710463961E-003 -18.3786
1.40197126137112E+001 1.71896446363573E-003 -18.7105
1.42199942224785E+001 1.38733018061172E-003 -19.0443
1.44202758312458E+001 1.09743521092272E-003 -19.3813
1.46205574400131E+001 8.50632591221089E-004 -19.7228
1.48208390487804E+001 6.46177320949592E-004 -20.0695
1.50211206575477E+001 4.81134075416997E-004 -20.4216
1.52214022663150E+001 3.50774706844611E-004 -20.778
1.54216838750823E+001 2.49345454687531E-004 -21.1364
1.56219654838496E+001 1.71005353770403E-004 -21.493
1.58222470926169E+001 1.10708761560769E-004 -21.8424
1.60225287013842E+001 6.48304224831602E-005 -22.1772
1.62228103101515E+001 3.14026857299236E-005 -22.4834
1.64230919189188E+001 9.93285993604710E-006 -22.7116
1.66233735276861E+001 8.70154262257778E-007 -22.2988
1.68236551364534E+001 4.87236843255774E-006 -20.829
1.70239367452207E+001 2.20643297923097E-005 -20.9451
1.72242183539880E+001 5.14746451169886E-005 -21.1912
1.74244999627553E+001 9.07876094950811E-005 -21.4635
1.76247815715226E+001 1.36466357574921E-004 -21.7451
1.78250631802899E+001 1.84211680080891E-004 -22.0317
1.80253447890572E+001 2.29640422811237E-004 -22.3229
1.82256263978245E+001 2.69016800623260E-004 -22.6196
1.84259080065918E+001 2.99860451938618E-004 -22.9228
1.86261896153591E+001 3.21287774994436E-004 -23.2339
1.88264712241264E+001 3.34009170368868E-004 -23.5541
1.90267528328937E+001 3.39987769917132E-004 -23.8836
1.92270344416610E+001 3.41845015746481E-004 -24.222
1.94273160504283E+001 3.42156286601428E-004 -24.5674
1.96275976591956E+001 3.42802531944032E-004 -24.9167
1.98278792679629E+001 3.44527044030775E-004 -25.2663
2.00281608767302E+001 3.46794992908504E-004 -25.6124
2.02284424854975E+001 3.47980121202871E-004 -25.9524
2.04287240942648E+001 3.45825773127018E-004 -26.2851
2.06290057030321E+001 3.38064421122441E-004 -26.6108
2.08292873117994E+001 3.23045441950549E-004 -26.9311
2.10295689205667E+001 3.00222372592624E-004 -27.2486
2.12298505293340E+001 2.70386921696524E-004 -27.5668
2.14301321381013E+001 2.35598243539984E-004 -27.8901
2.16304137468686E+001 1.98827400590281E-004 -28.2239
2.18306953556359E+001 1.63401627973053E-004 -28.5741
2.20309769644033E+001 1.32376166311055E-004 -28.9467
2.22312585731705E+001 1.07973780154592E-004 -29.3453
2.24315401819379E+001 9.12118942484073E-005 -29.767
2.26318217907052E+001 8.17905130695580E-005 -30.1989
2.28321033994725E+001 7.82527044479970E-005 -30.6215
2.30323850082398E+001 7.83683485779894E-005 -31.0173
2.32326666170071E+001 7.96453068285373E-005 -31.3777
2.34329482257744E+001 7.98503183700273E-005 -31.7022
2.36332298345417E+001 7.74286194749200E-005 -31.9935
2.38335114433090E+001 7.17433248373605E-005 -32.2539
2.40337930520763E+001 6.31038712955726E-005 -32.4833
2.42340746608436E+001 5.26046500722579E-005 -32.6778
2.44343562696109E+001 4.18374108845407E-005 -32.8278
2.46346378783782E+001 3.25640915129679E-005 -32.9183
2.48349194871455E+001 2.64356893034044E-005 -32.9356
2.50352010959128E+001 2.48192332081667E-005 -32.8927
2.52354827046801E+001 2.87561502202008E-005 -32.8478
2.54357643134474E+001 3.90323996608210E-005 -32.8606
2.56360459222147E+001 5.63055798144380E-005 -32.9443
2.58363275309820E+001 8.12165090796455E-005 -33.0827
2.60366091397493E+001 1.14417609988116E-004 -33.2562
2.62368907485166E+001 1.56476908380522E-004 -33.4499
2.64371723572839E+001 2.07658000022160E-004 -33.6533
2.66374539660512E+001 2.67622217773544E-004 -33.8592
2.68377355748185E+001 3.35137252300192E-004 -34.0629
2.70380171835858E+001 4.07895943171869E-004 -34.2606
2.72382987923531E+001 4.82543315489698E-004 -34.45
2.74385804011204E+001 5.54978444657071E-004 -34.6288
2.76388620098877E+001 6.20945744199548E-004 -34.7951
2.78391436186550E+001 6.76868124478011E-004 -34.9468
2.80394252274223E+001 7.20815219806176E-004 -35.0819
2.82397068361896E+001 7.53456440945960E-004 -35.1979
2.84399884449569E+001 7.78830943807215E-004 -35.2926
2.86402700537242E+001 8.04779609503480E-004 -35.3648
2.88405516624915E+001 8.42926648022000E-004 -35.4151
2.90408332712588E+001 9.08163579786633E-004 -35.4474
2.92411148800261E+001 1.01766500158210E-003 -35.4693
2.94413964887934E+001 1.18954065985890E-003 -35.4903
2.96416780975607E+001 1.44128950568525E-003 -35.519
2.98419597063280E+001 1.78825901679462E-003 -35.561
3.00422413150953E+001 2.24232190723118E-003 -35.6179
3.02425229238626E+001 2.81096199887772E-003 -35.6888
3.04428045326299E+001 3.49691544079566E-003 -35.7715
3.06430861413972E+001 4.29844968696254E-003 -35.8632
3.08433677501645E+001 5.21028926473168E-003 -35.9612
3.10436493589319E+001 6.22512296997595E-003 -36.0634
3.12439309676992E+001 7.33555916784438E-003 -36.1676
3.14442125764665E+001 8.53634014295440E-003 -36.2724
3.16444941852338E+001 9.82658705610350E-003 -36.3765
3.18447757940011E+001 1.12118268928879E-002 -36.4789
3.20450574027684E+001 1.27055539219617E-002 -36.5792
3.22453390115357E+001 1.43301021984360E-002 -36.6769
3.24456206203030E+001 1.61166534780923E-002 -36.7722
3.26459022290703E+001 1.81042762186855E-002 -36.8652
3.28461838378376E+001 2.03379836287467E-002 -36.9564
3.30464654466049E+001 2.28659063751003E-002 -37.0464
3.32467470553722E+001 2.57357893150397E-002 -37.1359
3.34470286641395E+001 2.89911287196304E-002 -37.2254
3.36473102729068E+001 3.26673517322800E-002 -37.3154
3.38475918816741E+001 3.67884876827436E-002 -37.4063
3.40478734904414E+001 4.13647780233687E-002 -37.4983
3.42481550992087E+001 4.63916098504027E-002 -37.5914
3.44484367079760E+001 5.18500365640465E-002 -37.6855
3.46487183167433E+001 5.77089765964814E-002 -37.7803
3.48489999255106E+001 6.39289747775874E-002 -37.8756
3.50492815342779E+001 7.04671957983537E-002 -37.971
3.52495631430452E+001 7.72831247559703E-002 -38.0663
3.54498447518125E+001 8.43443055024797E-002 -38.161
3.56501263605798E+001 9.16313786110579E-002 -38.2549
3.58504079693471E+001 9.91417036376650E-002 -38.3478
3.60506895781144E+001 1.06890969512883E-001 -38.4396
3.62509711868817E+001 1.14912403503928E-001 -38.5304
3.64512527956490E+001 1.23253461561717E-001 -38.62
3.66515344044163E+001 1.31970189010592E-001 -38.7088
3.68518160131836E+001 1.41119742246886E-001 -38.7969
3.70520976219509E+001 1.50751820103115E-001 -38.8847
3.72523792307182E+001 1.60899932784772E-001 -38.9722
3.74526608394855E+001 1.71573510824331E-001 -39.06
3.76529424482528E+001 1.82751812962794E-001 -39.1482
3.78532240570201E+001 1.94380431393169E-001 -39.2369
3.80535056657874E+001 2.06370930993125E-001 -39.3265
3.82537872745547E+001 2.18603824299316E-001 -39.4168
3.84540688833220E+001 2.30934713602106E-001 -39.5079
3.86543504920893E+001 2.43203068133143E-001 -39.5998
3.88546321008566E+001 2.55242790326939E-001 -39.6922
3.90549137096239E+001 2.66893498123841E-001 -39.7851
3.92551953183912E+001 2.78011338625163E-001 -39.8783
3.94554769271585E+001 2.88478168004754E-001 -39.9716
3.96557585359258E+001 2.98208084842571E-001 -40.0647
3.98560401446931E+001 3.07150575438336E-001 -40.1576
4.00563217534605E+001 3.15289892799770E-001 -40.25
4.02566033622278E+001 3.22640707264239E-001 -40.3421
4.04568849709951E+001 3.29240490202534E-001 -40.4336
4.06571665797624E+001 3.35139474702110E-001 -40.5246
4.08574481885297E+001 3.40389333334749E-001 -40.6152
4.10577297972970E+001 3.45031886311909E-001 -40.7055
4.12580114060643E+001 3.49089179848612E-001 -40.7956
4.14582930148316E+001 3.52556147168749E-001 -40.8857
4.16585746235989E+001 3.55396794033681E-001 -40.9759
4.18588562323662E+001 3.57544465039888E-001 -41.0664
4.20591378411335E+001 3.58906288782237E-001 -41.1574
4.22594194499008E+001 3.59371421577731E-001 -41.2488
4.24597010586681E+001 3.58822266514430E-001 -41.3407
4.26599826674354E+001 3.57147489457371E-001 -41.4331
4.28602642762027E+001 3.54255428655108E-001 -41.5259
4.30605458849700E+001 3.50086426730500E-001 -41.6191
4.32608274937373E+001 3.44622711306619E-001 -41.7125
4.34611091025046E+001 3.37894701761780E-001 -41.8059
4.36613907112719E+001 3.29982994950144E-001 -41.8992
4.38616723200392E+001 3.21015738329183E-001 -41.9921
4.40619539288065E+001 3.11161582516129E-001 -42.0845
4.42622355375738E+001 3.00618862734780E-001 -42.1762
4.44625171463411E+001 2.89602040543120E-001 -42.2671
4.46627987551084E+001 2.78326704677931E-001 -42.3572
4.48630803638757E+001 2.66994558241164E-001 -42.4465
4.50633619726430E+001 2.55779800551960E-001 -42.5351
4.52636435814103E+001 2.44818153705775E-001 -42.6232
4.54639251901776E+001 2.34199508155131E-001 -42.711
4.56642067989449E+001 2.23964800889561E-001 -42.7988
4.58644884077122E+001 2.14107332654107E-001 -42.8868
4.60647700164795E+001 2.04578317427977E-001 -42.9756
4.62650516252468E+001 1.95296076089163E-001 -43.0652
4.64653332340141E+001 1.86157969290779E-001 -43.1561
4.66656148427814E+001 1.77053936829031E-001 -43.2483
4.68658964515487E+001 1.67880388064452E-001 -43.3419
4.70661780603160E+001 1.58553176953585E-001 -43.437
4.72664596690833E+001 1.49018493795351E-001 -43.5332
4.74667412778506E+001 1.39260703631279E-001 -43.6305
4.76670228866179E+001 1.29306440984973E-001 -43.7283
4.78673044953852E+001 1.19224608945104E-001 -43.8263
4.80675861041525E+001 1.09122299523306E-001 -43.9238
4.82678677129198E+001 9.91370207677116E-002 -44.0202
4.84681493216872E+001 8.94259522458605E-002 -44.1147
4.86684309304545E+001 8.01532235113554E-002 -44.2068
4.88687125392218E+001 7.14763933638717E-002 -44.2956
4.90689941479891E+001 6.35333813350115E-002 -44.3806
4.92692757567564E+001 5.64310566973282E-002 -44.4616
4.94695573655237E+001 5.02365258534871E-002 -44.5385
4.96698389742910E+001 4.49718903012113E-002 -44.6119
4.98701205830583E+001 4.06129007530728E-002 -44.6832
5.00704021918256E+001 3.70915447623454E-002 -44.7541
5.02706838005929E+001 3.43022180663587E-002 -44.8272
5.04709654093602E+001 3.21107878376246E-002 -44.9048
5.06712470181275E+001 3.03655987637390E-002 -44.9897
5.08715286268948E+001 2.89093299725719E-002 -45.0837
5.10718102356621E+001 2.75905972626299E-002 -45.1883
5.12720918444294E+001 2.62743085026331E-002 -45.3044
5.14723734531967E+001 2.48500004393201E-002 -45.4322
5.16726550619640E+001 2.32376774563387E-002 -45.5718
5.18729366707313E+001 2.13909921154879E-002 -45.7228
5.20732182794986E+001 1.92979058172372E-002 -45.8851
5.22734998882659E+001 1.69792029703231E-002 -46.0583
5.24737814970332E+001 1.44853734951977E-002 -46.2428
5.26740631058005E+001 1.18924141439370E-002 -46.439
5.28743447145678E+001 9.29703726824116E-003 -46.6485
5.30746263233351E+001 6.81164364607447E-003 -46.8748
5.32749079321024E+001 4.55925502154173E-003 -47.1256
5.34751895408697E+001 2.66845897010755E-003 -47.4198
5.36754711496370E+001 1.26833603451687E-003 -47.8125
5.38757527584043E+001 4.83345028030935E-004 -48.4982
5.40760343671716E+001 4.28243366745441E-004 -49.6794
5.42763159759389E+001 1.20329621256255E-003 -50.4723
5.44765975847062E+001 2.89023815823904E-003 -50.9139
5.46768791934735E+001 5.54963440356111E-003 -51.2456
5.48771608022408E+001 9.22037986264760E-003 -51.537
5.50774424110081E+001 1.39220184540381E-002 -51.8113
5.52777240197754E+001 1.96603283027549E-002 -52.078
5.54780056285427E+001 2.64362036071959E-002 -52.3419
5.56782872373100E+001 3.42573123936849E-002 -52.6053
5.58785688460773E+001 4.31514010751509E-002 -52.8696
5.60788504548446E+001 5.31795589975288E-002 -53.1355
5.62791320636119E+001 6.44473665197002E-002 -53.4031
5.64794136723792E+001 7.71117344557530E-002 -53.6726
5.66796952811465E+001 9.13814725373813E-002 -53.9433
5.68799768899138E+001 1.07510218603543E-001 -54.215
5.70802584986811E+001 1.25781273348837E-001 -54.4869
5.72805401074484E+001 1.46485008728845E-001 -54.7584
5.74808217162158E+001 1.69890690938999E-001 -55.0288
5.76811033249830E+001 1.96215592192988E-001 -55.2977
5.78813849337504E+001 2.25594972768034E-001 -55.5645
5.80816665425177E+001 2.58056745568979E-001 -55.8292
5.82819481512850E+001 2.93504305883018E-001 -56.0916
5.84822297600523E+001 3.31710122629112E-001 -56.3517
5.86825113688196E+001 3.72321342329913E-001 -56.6097
5.88827929775869E+001 4.14877036439764E-001 -56.8658
5.90830745863542E+001 4.58835069514631E-001 -57.1204
5.92833561951215E+001 5.03605144932767E-001 -57.3735
5.94836378038888E+001 5.48583639071388E-001 -57.6256
5.96839194126561E+001 5.93185541141210E-001 -57.8769
5.98842010214234E+001 6.36869251736760E-001 -58.1275
6.00844826301907E+001 6.79151117780979E-001 -58.3777
6.02847642389580E+001 7.19608237035024E-001 -58.6274
6.04850458477253E+001 7.57869998369966E-001 -58.8768
6.06853274564926E+001 7.93600724989172E-001 -59.1258
6.08856090652599E+001 8.26477341507082E-001 -59.3743
6.10858906740272E+001 8.56166924697495E-001 -59.6223
6.12861722827945E+001 8.82309148890672E-001 -59.8696
6.14864538915618E+001 9.04507954061264E-001 -60.1161
6.16867355003291E+001 9.22335338843503E-001 -60.3617
6.18870171090964E+001 9.35348228536173E-001 -60.6063
6.20872987178637E+001 9.43117197368218E-001 -60.8499
6.22875803266310E+001 9.45263783750858E-001 -61.0925
6.24878619353983E+001 9.41501559154256E-001 -61.334
6.26881435441656E+001 9.31675255704904E-001 -61.5746
6.28884251529329E+001 9.15792269010345E-001 -61.8144
6.30887067617002E+001 8.94041735697007E-001 -62.0533
6.32889883704675E+001 8.66798004013805E-001 -62.2917
6.34892699792348E+001 8.34607417716783E-001 -62.5295
6.36895515880021E+001 7.98159590758375E-001 -62.767
6.38898331967694E+001 7.58246415375697E-001 -63.0041
6.40901148055367E+001 7.15713608199632E-001 -63.2409
6.42903964143040E+001 6.71410433784852E-001 -63.4774
6.44906780230713E+001 6.26143249004930E-001 -63.7136
6.46909596318386E+001 5.80637715396226E-001 -63.9493
6.48912412406059E+001 5.35513084358319E-001 -64.1843
6.50915228493732E+001 4.91270121114919E-001 -64.4185
6.52918044581405E+001 4.48292296528401E-001 -64.6514
6.54920860669078E+001 4.06858139530279E-001 -64.8828
6.56923676756751E+001 3.67161356367510E-001 -65.1124
6.58926492844425E+001 3.29334648688784E-001 -65.3398
6.60929308932098E+001 2.93473155464724E-001 -65.5647
6.62932125019771E+001 2.59654048782053E-001 -65.7869
6.64934941107444E+001 2.27949882284946E-001 -66.0061
6.66937757195116E+001 1.98434612811282E-001 -66.222
6.68940573282790E+001 1.71182557072705E-001 -66.4344
6.70943389370463E+001 1.46261690072358E-001 -66.6433
6.72946205458136E+001 1.23723476284216E-001 -66.8485
6.74949021545809E+001 1.03591759177964E-001 -67.0498
6.76951837633482E+001 8.58531132787427E-002 -67.247
6.78954653721155E+001 7.04505558406424E-002 -67.4398
6.80957469808828E+001 5.72817498465977E-002 -67.628
6.82960285896501E+001 4.62019637531185E-002 -67.8112
6.84963101984174E+001 3.70312433754245E-002 -67.9888
6.86965918071847E+001 2.95646275194241E-002 -68.1604
6.88968734159520E+001 2.35838844675630E-002 -68.3254
6.90971550247193E+001 1.88691879556340E-002 -68.4832
6.92974366334866E+001 1.52093608275296E-002 -68.6334
6.94977182422539E+001 1.24097205661120E-002 -68.7761
6.96979998510212E+001 1.02970661170796E-002 -68.9119
6.98982814597885E+001 8.72184748021404E-003 -69.0417
7.00985630685558E+001 7.55797020218180E-003 -69.1673
7.02988446773231E+001 6.70094655135692E-003 -69.2905
7.04991262860904E+001 6.06519031724202E-003 -69.4134
7.06994078948577E+001 5.58117540755105E-003 -69.5373
7.08996895036250E+001 5.19298135369246E-003 -69.6633
7.10999711123923E+001 4.85649049978319E-003 -69.7917
7.13002527211596E+001 4.53824472534273E-003 -69.9224
7.15005343299269E+001 4.21476753139318E-003 -70.0547
7.17008159386942E+001 3.87204493673143E-003 -70.1881
7.19010975474615E+001 3.50484711046738E-003 -70.3214
7.21013791562288E+001 3.11565024249814E-003 -70.4536
7.23016607649961E+001 2.71305520386266E-003 -70.5836
7.25019423737634E+001 2.30975684504729E-003 -70.7102
7.27022239825307E+001 1.92025585953257E-003 -70.8318
7.29025055912980E+001 1.55859277499336E-003 -70.9468
7.31027872000653E+001 1.23640374076979E-003 -71.0532
7.33030688088326E+001 9.61549774355443E-004 -71.1489
7.35033504175999E+001 7.37469573595918E-004 -71.2316
7.37036320263672E+001 5.63276143864838E-004 -71.3
7.39039136351345E+001 4.34488912949523E-004 -71.3543
7.41041952439018E+001 3.44192879510471E-004 -71.398
7.43044768526691E+001 2.84363740996522E-004 -71.439
7.45047584614364E+001 2.47100371933687E-004 -71.4881
7.47050400702037E+001 2.25558667488749E-004 -71.556
7.49053216789710E+001 2.14468499787320E-004 -71.6495
7.51056032877383E+001 2.10216956914209E-004 -71.7706
7.53058848965057E+001 2.10573584582196E-004 -71.9168
